sample interval	   MLII
(0.0027777 sec)	   (mV)
0	-0.445
1	-0.445
2	-0.445
3	-0.445
4	-0.445
5	-0.445
6	-0.445
7	-0.445
8	-0.45
9	-0.43
10	-0.435
11	-0.405
12	-0.385
13	-0.365
14	-0.355
15	-0.34
16	-0.325
17	-0.305
18	-0.285
19	-0.26
20	-0.245
21	-0.225
22	-0.24
23	-0.225
24	-0.21
25	-0.195
26	-0.19
27	-0.195
28	-0.205
29	-0.205
30	-0.2
31	-0.205
32	-0.21
33	-0.215
34	-0.235
35	-0.235
36	-0.22
37	-0.235
38	-0.24
39	-0.255
40	-0.28
41	-0.275
42	-0.265
43	-0.27
44	-0.27
45	-0.285
46	-0.305
47	-0.305
48	-0.295
49	-0.29
50	-0.3
51	-0.305
52	-0.315
53	-0.31
54	-0.315
55	-0.295
56	-0.3
57	-0.31
58	-0.315
59	-0.315
60	-0.32
61	-0.315
62	-0.305
63	-0.31
64	-0.33
65	-0.325
66	-0.33
67	-0.32
68	-0.32
69	-0.31
70	-0.325
71	-0.33
72	-0.33
73	-0.325
74	-0.325
75	-0.335
76	-0.335
77	-0.33
78	-0.32
79	-0.32
80	-0.335
81	-0.335
82	-0.345
83	-0.34
84	-0.325
85	-0.32
86	-0.325
87	-0.35
88	-0.36
89	-0.35
90	-0.325
91	-0.31
92	-0.325
93	-0.335
94	-0.34
95	-0.34
96	-0.33
97	-0.325
98	-0.335
99	-0.34
100	-0.345
101	-0.33
102	-0.335
103	-0.325
104	-0.325
105	-0.335
106	-0.34
107	-0.325
108	-0.325
109	-0.32
110	-0.325
111	-0.33
112	-0.345
113	-0.325
114	-0.325
115	-0.325
116	-0.32
117	-0.325
118	-0.33
119	-0.335
120	-0.305
121	-0.31
122	-0.295
123	-0.285
124	-0.29
125	-0.245
126	-0.23
127	-0.21
128	-0.23
129	-0.245
130	-0.245
131	-0.225
132	-0.19
133	-0.155
134	-0.145
135	-0.15
136	-0.155
137	-0.15
138	-0.14
139	-0.13
140	-0.12
141	-0.125
142	-0.14
143	-0.145
144	-0.15
145	-0.155
146	-0.15
147	-0.175
148	-0.2
149	-0.24
150	-0.28
151	-0.325
152	-0.36
153	-0.38
154	-0.39
155	-0.38
156	-0.38
157	-0.37
158	-0.38
159	-0.395
160	-0.415
161	-0.395
162	-0.395
163	-0.38
164	-0.37
165	-0.375
166	-0.39
167	-0.385
168	-0.38
169	-0.365
170	-0.375
171	-0.37
172	-0.4
173	-0.385
174	-0.37
175	-0.375
176	-0.37
177	-0.37
178	-0.36
179	-0.355
180	-0.355
181	-0.365
182	-0.37
183	-0.37
184	-0.355
185	-0.3
186	-0.21
187	-0.085
188	0.05
189	0.235
190	0.4
191	0.59
192	0.775
193	0.915
194	1.025
195	1.1
196	1.16
197	1.18
198	1.09
199	0.96
200	0.825
201	0.71
202	0.575
203	0.41
204	0.255
205	0.145
206	0.095
207	0.005
208	-0.105
209	-0.195
210	-0.245
211	-0.285
212	-0.325
213	-0.375
214	-0.43
215	-0.47
216	-0.495
217	-0.505
218	-0.52
219	-0.55
220	-0.56
221	-0.55
222	-0.54
223	-0.52
224	-0.54
225	-0.54
226	-0.55
227	-0.545
228	-0.53
229	-0.515
230	-0.53
231	-0.53
232	-0.535
233	-0.545
234	-0.525
235	-0.515
236	-0.51
237	-0.525
238	-0.535
239	-0.52
240	-0.51
241	-0.505
242	-0.51
243	-0.525
244	-0.535
245	-0.535
246	-0.515
247	-0.51
248	-0.515
249	-0.52
250	-0.53
251	-0.545
252	-0.535
253	-0.525
254	-0.515
255	-0.53
256	-0.535
257	-0.53
258	-0.515
259	-0.52
260	-0.53
261	-0.525
262	-0.515
263	-0.52
264	-0.495
265	-0.48
266	-0.49
267	-0.485
268	-0.495
269	-0.47
270	-0.47
271	-0.45
272	-0.445
273	-0.43
274	-0.435
275	-0.42
276	-0.4
277	-0.375
278	-0.37
279	-0.36
280	-0.35
281	-0.33
282	-0.3
283	-0.26
284	-0.25
285	-0.24
286	-0.235
287	-0.23
288	-0.21
289	-0.205
290	-0.18
291	-0.175
292	-0.185
293	-0.17
294	-0.165
295	-0.16
296	-0.155
297	-0.17
298	-0.17
299	-0.175
300	-0.175
301	-0.185
302	-0.185
303	-0.195
304	-0.2
305	-0.215
306	-0.22
307	-0.215
308	-0.23
309	-0.265
310	-0.28
311	-0.265
312	-0.26
313	-0.265
314	-0.255
315	-0.28
316	-0.31
317	-0.305
318	-0.29
319	-0.285
320	-0.3
321	-0.285
322	-0.29
323	-0.29
324	-0.29
325	-0.295
326	-0.295
327	-0.31
328	-0.31
329	-0.31
330	-0.315
331	-0.315
332	-0.315
333	-0.325
334	-0.33
335	-0.325
336	-0.31
337	-0.315
338	-0.32
339	-0.325
340	-0.36
341	-0.335
342	-0.32
343	-0.31
344	-0.32
345	-0.32
346	-0.33
347	-0.33
348	-0.31
349	-0.29
350	-0.3
351	-0.325
352	-0.33
353	-0.345
354	-0.325
355	-0.32
356	-0.32
357	-0.31
358	-0.315
359	-0.32
360	-0.32
361	-0.315
362	-0.31
363	-0.33
364	-0.34
365	-0.335
366	-0.325
367	-0.32
368	-0.32
369	-0.325
370	-0.345
371	-0.335
372	-0.32
373	-0.32
374	-0.32
375	-0.33
376	-0.36
377	-0.345
378	-0.32
379	-0.32
380	-0.33
381	-0.34
382	-0.355
383	-0.345
384	-0.33
385	-0.305
386	-0.3
387	-0.295
388	-0.305
389	-0.285
390	-0.245
391	-0.225
392	-0.225
393	-0.245
394	-0.26
395	-0.25
396	-0.22
397	-0.205
398	-0.175
399	-0.18
400	-0.175
401	-0.17
402	-0.145
403	-0.12
404	-0.145
405	-0.15
406	-0.165
407	-0.17
408	-0.165
409	-0.17
410	-0.185
411	-0.205
412	-0.24
413	-0.27
414	-0.325
415	-0.36
416	-0.39
417	-0.395
418	-0.405
419	-0.405
420	-0.415
421	-0.41
422	-0.4
423	-0.41
424	-0.42
425	-0.42
426	-0.4
427	-0.395
428	-0.395
429	-0.4
430	-0.39
431	-0.39
432	-0.385
433	-0.38
434	-0.39
435	-0.4
436	-0.395
437	-0.385
438	-0.375
439	-0.37
440	-0.365
441	-0.385
442	-0.39
443	-0.385
444	-0.39
445	-0.39
446	-0.385
447	-0.37
448	-0.33
449	-0.225
450	-0.09
451	0.09
452	0.27
453	0.46
454	0.64
455	0.83
456	0.98
457	1.085
458	1.175
459	1.175
460	1.065
461	0.91
462	0.78
463	0.66
464	0.53
465	0.385
466	0.245
467	0.175
468	0.155
469	0.095
470	0
471	-0.115
472	-0.19
473	-0.25
474	-0.295
475	-0.35
476	-0.415
477	-0.455
478	-0.49
479	-0.495
480	-0.495
481	-0.51
482	-0.52
483	-0.54
484	-0.56
485	-0.55
486	-0.54
487	-0.52
488	-0.515
489	-0.52
490	-0.53
491	-0.525
492	-0.495
493	-0.475
494	-0.485
495	-0.495
496	-0.51
497	-0.515
498	-0.505
499	-0.495
500	-0.5
501	-0.49
502	-0.495
503	-0.49
504	-0.49
505	-0.485
506	-0.5
507	-0.505
508	-0.515
509	-0.515
510	-0.51
511	-0.505
512	-0.505
513	-0.5
514	-0.505
515	-0.51
516	-0.5
517	-0.5
518	-0.5
519	-0.505
520	-0.525
521	-0.515
522	-0.515
523	-0.515
524	-0.495
525	-0.5
526	-0.51
527	-0.495
528	-0.49
529	-0.47
530	-0.475
531	-0.48
532	-0.475
533	-0.45
534	-0.44
535	-0.415
536	-0.41
537	-0.42
538	-0.4
539	-0.385
540	-0.345
541	-0.325
542	-0.32
543	-0.335
544	-0.325
545	-0.305
546	-0.285
547	-0.255
548	-0.24
549	-0.235
550	-0.235
551	-0.23
552	-0.205
553	-0.19
554	-0.2
555	-0.2
556	-0.22
557	-0.205
558	-0.22
559	-0.205
560	-0.215
561	-0.245
562	-0.26
563	-0.25
564	-0.255
565	-0.25
566	-0.265
567	-0.28
568	-0.3
569	-0.295
570	-0.3
571	-0.3
572	-0.305
573	-0.31
574	-0.33
575	-0.33
576	-0.32
577	-0.315
578	-0.32
579	-0.33
580	-0.345
581	-0.345
582	-0.34
583	-0.335
584	-0.335
585	-0.34
586	-0.355
587	-0.34
588	-0.345
589	-0.34
590	-0.35
591	-0.35
592	-0.365
593	-0.365
594	-0.35
595	-0.335
596	-0.335
597	-0.35
598	-0.36
599	-0.37
600	-0.36
601	-0.345
602	-0.35
603	-0.365
604	-0.365
605	-0.37
606	-0.355
607	-0.355
608	-0.36
609	-0.365
610	-0.365
611	-0.355
612	-0.335
613	-0.34
614	-0.355
615	-0.375
616	-0.385
617	-0.375
618	-0.36
619	-0.35
620	-0.355
621	-0.365
622	-0.375
623	-0.37
624	-0.36
625	-0.355
626	-0.355
627	-0.365
628	-0.365
629	-0.355
630	-0.335
631	-0.325
632	-0.335
633	-0.36
634	-0.375
635	-0.355
636	-0.335
637	-0.32
638	-0.32
639	-0.29
640	-0.3
641	-0.275
642	-0.25
643	-0.22
644	-0.24
645	-0.255
646	-0.245
647	-0.215
648	-0.18
649	-0.17
650	-0.165
651	-0.145
652	-0.135
653	-0.125
654	-0.115
655	-0.105
656	-0.115
657	-0.13
658	-0.17
659	-0.17
660	-0.18
661	-0.18
662	-0.21
663	-0.255
664	-0.315
665	-0.35
666	-0.37
667	-0.375
668	-0.37
669	-0.39
670	-0.405
671	-0.4
672	-0.39
673	-0.375
674	-0.38
675	-0.385
676	-0.405
677	-0.385
678	-0.375
679	-0.375
680	-0.38
681	-0.375
682	-0.38
683	-0.37
684	-0.355
685	-0.35
686	-0.355
687	-0.365
688	-0.375
689	-0.36
690	-0.35
691	-0.34
692	-0.34
693	-0.355
694	-0.38
695	-0.38
696	-0.36
697	-0.32
698	-0.23
699	-0.1
700	0.055
701	0.24
702	0.415
703	0.61
704	0.775
705	0.925
706	1.03
707	1.105
708	1.155
709	1.14
710	1.035
711	0.885
712	0.755
713	0.65
714	0.54
715	0.37
716	0.19
717	0.08
718	-0.015
719	-0.08
720	-0.175
721	-0.245
722	-0.305
723	-0.365
724	-0.41
725	-0.45
726	-0.47
727	-0.49
728	-0.495
729	-0.535
730	-0.56
731	-0.57
732	-0.565
733	-0.555
734	-0.56
735	-0.565
736	-0.585
737	-0.57
738	-0.555
739	-0.55
740	-0.545
741	-0.555
742	-0.57
743	-0.56
744	-0.55
745	-0.545
746	-0.525
747	-0.53
748	-0.545
749	-0.535
750	-0.53
751	-0.53
752	-0.52
753	-0.525
754	-0.535
755	-0.535
756	-0.525
757	-0.535
758	-0.525
759	-0.53
760	-0.55
761	-0.535
762	-0.53
763	-0.52
764	-0.535
765	-0.545
766	-0.55
767	-0.54
768	-0.525
769	-0.525
770	-0.535
771	-0.54
772	-0.53
773	-0.52
774	-0.51
775	-0.5
776	-0.505
777	-0.515
778	-0.52
779	-0.51
780	-0.505
781	-0.495
782	-0.48
783	-0.475
784	-0.475
785	-0.455
786	-0.425
787	-0.4
788	-0.41
789	-0.405
790	-0.4
791	-0.385
792	-0.37
793	-0.345
794	-0.315
795	-0.31
796	-0.315
797	-0.29
798	-0.26
799	-0.25
800	-0.235
801	-0.23
802	-0.24
803	-0.225
804	-0.22
805	-0.205
806	-0.2
807	-0.18
808	-0.185
809	-0.18
810	-0.185
811	-0.17
812	-0.19
813	-0.21
814	-0.225
815	-0.23
816	-0.215
817	-0.215
818	-0.23
819	-0.25
820	-0.26
821	-0.27
822	-0.255
823	-0.255
824	-0.265
825	-0.275
826	-0.275
827	-0.28
828	-0.285
829	-0.27
830	-0.27
831	-0.295
832	-0.3
833	-0.31
834	-0.31
835	-0.295
836	-0.295
837	-0.295
838	-0.315
839	-0.315
840	-0.325
841	-0.315
842	-0.315
843	-0.315
844	-0.325
845	-0.335
846	-0.33
847	-0.33
848	-0.32
849	-0.32
850	-0.325
851	-0.325
852	-0.31
853	-0.31
854	-0.315
855	-0.305
856	-0.31
857	-0.32
858	-0.32
859	-0.32
860	-0.32
861	-0.32
862	-0.33
863	-0.32
864	-0.315
865	-0.305
866	-0.315
867	-0.315
868	-0.34
869	-0.335
870	-0.325
871	-0.315
872	-0.31
873	-0.33
874	-0.34
875	-0.32
876	-0.305
877	-0.295
878	-0.3
879	-0.315
880	-0.33
881	-0.33
882	-0.31
883	-0.295
884	-0.3
885	-0.32
886	-0.33
887	-0.325
888	-0.31
889	-0.295
890	-0.31
891	-0.32
892	-0.315
893	-0.295
894	-0.28
895	-0.265
896	-0.245
897	-0.245
898	-0.245
899	-0.24
900	-0.22
901	-0.215
902	-0.23
903	-0.21
904	-0.195
905	-0.18
906	-0.16
907	-0.135
908	-0.125
909	-0.13
910	-0.13
911	-0.12
912	-0.095
913	-0.105
914	-0.105
915	-0.13
916	-0.15
917	-0.14
918	-0.145
919	-0.17
920	-0.23
921	-0.28
922	-0.325
923	-0.34
924	-0.34
925	-0.335
926	-0.36
927	-0.365
928	-0.375
929	-0.37
930	-0.355
931	-0.34
932	-0.345
933	-0.35
934	-0.345
935	-0.35
936	-0.35
937	-0.33
938	-0.315
939	-0.325
940	-0.34
941	-0.33
942	-0.335
943	-0.315
944	-0.31
945	-0.31
946	-0.32
947	-0.315
948	-0.305
949	-0.305
950	-0.315
951	-0.325
952	-0.335
953	-0.33
954	-0.275
955	-0.165
956	-0.01
957	0.185
958	0.355
959	0.56
960	0.77
961	0.945
962	1.05
963	1.14
964	1.18
965	1.14
966	1.035
967	0.895
968	0.77
969	0.675
970	0.57
971	0.46
972	0.31
973	0.17
974	0.065
975	-0.03
976	-0.11
977	-0.195
978	-0.27
979	-0.33
980	-0.365
981	-0.42
982	-0.485
983	-0.5
984	-0.51
985	-0.5
986	-0.505
987	-0.515
988	-0.535
989	-0.545
990	-0.54
991	-0.54
992	-0.54
993	-0.535
994	-0.52
995	-0.515
996	-0.515
997	-0.51
998	-0.51
999	-0.505
1000	-0.5
1001	-0.495
1002	-0.49
1003	-0.49
1004	-0.495
1005	-0.495
1006	-0.485
1007	-0.465
1008	-0.47
1009	-0.47
1010	-0.475
1011	-0.495
1012	-0.49
1013	-0.47
1014	-0.47
1015	-0.485
1016	-0.48
1017	-0.5
1018	-0.485
1019	-0.475
1020	-0.485
1021	-0.48
1022	-0.49
1023	-0.495
1024	-0.505
1025	-0.51
1026	-0.475
1027	-0.48
1028	-0.485
1029	-0.5
1030	-0.495
1031	-0.485
1032	-0.475
1033	-0.465
1034	-0.47
1035	-0.485
1036	-0.465
1037	-0.45
1038	-0.425
1039	-0.42
1040	-0.4
1041	-0.415
1042	-0.395
1043	-0.385
1044	-0.38
1045	-0.375
1046	-0.37
1047	-0.37
1048	-0.345
1049	-0.315
1050	-0.285
1051	-0.28
1052	-0.255
1053	-0.26
1054	-0.235
1055	-0.215
1056	-0.195
1057	-0.19
1058	-0.18
1059	-0.175
1060	-0.165
1061	-0.155
1062	-0.14
1063	-0.145
1064	-0.15
1065	-0.155
1066	-0.175
1067	-0.175
1068	-0.16
1069	-0.175
1070	-0.2
1071	-0.215
1072	-0.22
1073	-0.215
1074	-0.225
1075	-0.23
1076	-0.23
1077	-0.24
1078	-0.235
1079	-0.24
1080	-0.245
1081	-0.255
1082	-0.245
1083	-0.245
1084	-0.255
1085	-0.245
1086	-0.24
1087	-0.255
1088	-0.265
1089	-0.28
1090	-0.275
1091	-0.27
1092	-0.26
1093	-0.26
1094	-0.27
1095	-0.28
1096	-0.285
1097	-0.28
1098	-0.27
1099	-0.27
1100	-0.275
1101	-0.27
1102	-0.27
1103	-0.27
1104	-0.265
1105	-0.255
1106	-0.275
1107	-0.29
1108	-0.28
1109	-0.27
1110	-0.28
1111	-0.285
1112	-0.28
1113	-0.28
1114	-0.275
1115	-0.275
1116	-0.26
1117	-0.265
1118	-0.28
1119	-0.285
1120	-0.28
1121	-0.27
1122	-0.25
1123	-0.27
1124	-0.29
1125	-0.28
1126	-0.29
1127	-0.265
1128	-0.26
1129	-0.255
1130	-0.27
1131	-0.285
1132	-0.285
1133	-0.275
1134	-0.26
1135	-0.27
1136	-0.265
1137	-0.28
1138	-0.28
1139	-0.26
1140	-0.265
1141	-0.275
1142	-0.28
1143	-0.295
1144	-0.275
1145	-0.25
1146	-0.245
1147	-0.255
1148	-0.27
1149	-0.285
1150	-0.285
1151	-0.265
1152	-0.24
1153	-0.235
1154	-0.225
1155	-0.205
1156	-0.17
1157	-0.145
1158	-0.15
1159	-0.18
1160	-0.175
1161	-0.17
1162	-0.13
1163	-0.1
1164	-0.085
1165	-0.09
1166	-0.075
1167	-0.085
1168	-0.09
1169	-0.075
1170	-0.055
1171	-0.065
1172	-0.075
1173	-0.09
1174	-0.11
1175	-0.11
1176	-0.12
1177	-0.13
1178	-0.19
1179	-0.26
1180	-0.3
1181	-0.325
1182	-0.33
1183	-0.335
1184	-0.34
1185	-0.335
1186	-0.33
1187	-0.34
1188	-0.34
1189	-0.335
1190	-0.335
1191	-0.34
1192	-0.325
1193	-0.335
1194	-0.325
1195	-0.32
1196	-0.325
1197	-0.325
1198	-0.325
1199	-0.31
1200	-0.295
1201	-0.305
1202	-0.305
1203	-0.305
1204	-0.28
1205	-0.27
1206	-0.275
1207	-0.29
1208	-0.315
1209	-0.31
1210	-0.29
1211	-0.245
1212	-0.16
1213	-0.045
1214	0.115
1215	0.3
1216	0.515
1217	0.74
1218	0.935
1219	1.075
1220	1.195
1221	1.235
1222	1.195
1223	1.08
1224	0.96
1225	0.835
1226	0.74
1227	0.625
1228	0.465
1229	0.31
1230	0.215
1231	0.14
1232	0.025
1233	-0.08
1234	-0.16
1235	-0.23
1236	-0.27
1237	-0.325
1238	-0.385
1239	-0.445
1240	-0.46
1241	-0.46
1242	-0.485
1243	-0.485
1244	-0.495
1245	-0.5
1246	-0.495
1247	-0.51
1248	-0.515
1249	-0.505
1250	-0.495
1251	-0.495
1252	-0.495
1253	-0.475
1254	-0.475
1255	-0.48
1256	-0.485
1257	-0.49
1258	-0.5
1259	-0.485
1260	-0.47
1261	-0.47
1262	-0.465
1263	-0.47
1264	-0.465
1265	-0.465
1266	-0.48
1267	-0.475
1268	-0.48
1269	-0.48
1270	-0.48
1271	-0.465
1272	-0.47
1273	-0.47
1274	-0.475
1275	-0.485
1276	-0.465
1277	-0.46
1278	-0.455
1279	-0.45
1280	-0.46
1281	-0.48
1282	-0.46
1283	-0.45
1284	-0.44
1285	-0.445
1286	-0.45
1287	-0.465
1288	-0.465
1289	-0.465
1290	-0.455
1291	-0.44
1292	-0.43
1293	-0.435
1294	-0.42
1295	-0.41
1296	-0.39
1297	-0.37
1298	-0.365
1299	-0.36
1300	-0.33
1301	-0.315
1302	-0.295
1303	-0.275
1304	-0.28
1305	-0.27
1306	-0.24
1307	-0.22
1308	-0.2
1309	-0.185
1310	-0.18
1311	-0.175
1312	-0.16
1313	-0.135
1314	-0.115
1315	-0.125
1316	-0.13
1317	-0.155
1318	-0.15
1319	-0.14
1320	-0.135
1321	-0.14
1322	-0.16
1323	-0.175
1324	-0.175
1325	-0.18
1326	-0.17
1327	-0.185
1328	-0.2
1329	-0.215
1330	-0.22
1331	-0.225
1332	-0.235
1333	-0.235
1334	-0.24
1335	-0.25
1336	-0.25
1337	-0.24
1338	-0.235
1339	-0.25
1340	-0.25
1341	-0.28
1342	-0.27
1343	-0.27
1344	-0.26
1345	-0.275
1346	-0.275
1347	-0.3
1348	-0.285
1349	-0.275
1350	-0.265
1351	-0.27
1352	-0.28
1353	-0.295
1354	-0.29
1355	-0.285
1356	-0.265
1357	-0.285
1358	-0.295
1359	-0.295
1360	-0.31
1361	-0.29
1362	-0.28
1363	-0.285
1364	-0.29
1365	-0.29
1366	-0.295
1367	-0.29
1368	-0.285
1369	-0.29
1370	-0.285
1371	-0.31
1372	-0.3
1373	-0.305
1374	-0.295
1375	-0.29
1376	-0.29
1377	-0.29
1378	-0.295
1379	-0.3
1380	-0.28
1381	-0.28
1382	-0.285
1383	-0.3
1384	-0.29
1385	-0.285
1386	-0.275
1387	-0.27
1388	-0.275
1389	-0.3
1390	-0.29
1391	-0.275
1392	-0.275
1393	-0.27
1394	-0.285
1395	-0.295
1396	-0.285
1397	-0.28
1398	-0.265
1399	-0.27
1400	-0.27
1401	-0.27
1402	-0.275
1403	-0.255
1404	-0.255
1405	-0.255
1406	-0.265
1407	-0.27
1408	-0.225
1409	-0.205
1410	-0.195
1411	-0.185
1412	-0.195
1413	-0.2
1414	-0.195
1415	-0.175
1416	-0.145
1417	-0.13
1418	-0.13
1419	-0.125
1420	-0.11
1421	-0.095
1422	-0.06
1423	-0.07
1424	-0.075
1425	-0.105
1426	-0.1
1427	-0.085
1428	-0.085
1429	-0.09
1430	-0.115
1431	-0.13
1432	-0.155
1433	-0.18
1434	-0.22
1435	-0.275
1436	-0.305
1437	-0.355
1438	-0.35
1439	-0.335
1440	-0.33
1441	-0.34
1442	-0.35
1443	-0.37
1444	-0.345
1445	-0.34
1446	-0.33
1447	-0.33
1448	-0.34
1449	-0.34
1450	-0.33
1451	-0.325
1452	-0.32
1453	-0.32
1454	-0.33
1455	-0.34
1456	-0.32
1457	-0.305
1458	-0.295
1459	-0.29
1460	-0.3
1461	-0.32
1462	-0.3
1463	-0.31
1464	-0.31
1465	-0.315
1466	-0.31
1467	-0.3
1468	-0.235
1469	-0.14
1470	0
1471	0.18
1472	0.365
1473	0.555
1474	0.755
1475	0.94
1476	1.075
1477	1.16
1478	1.21
1479	1.165
1480	1.065
1481	0.94
1482	0.835
1483	0.755
1484	0.655
1485	0.525
1486	0.36
1487	0.22
1488	0.135
1489	0.07
1490	-0.02
1491	-0.13
1492	-0.215
1493	-0.275
1494	-0.315
1495	-0.36
1496	-0.41
1497	-0.445
1498	-0.455
1499	-0.465
1500	-0.465
1501	-0.47
1502	-0.485
1503	-0.495
1504	-0.505
1505	-0.5
1506	-0.495
1507	-0.5
1508	-0.495
1509	-0.5
1510	-0.495
1511	-0.48
1512	-0.47
1513	-0.475
1514	-0.47
1515	-0.485
1516	-0.475
1517	-0.465
1518	-0.465
1519	-0.47
1520	-0.495
1521	-0.495
1522	-0.485
1523	-0.475
1524	-0.47
1525	-0.48
1526	-0.485
1527	-0.505
1528	-0.495
1529	-0.475
1530	-0.46
1531	-0.465
1532	-0.48
1533	-0.485
1534	-0.495
1535	-0.475
1536	-0.485
1537	-0.485
1538	-0.475
1539	-0.495
1540	-0.505
1541	-0.49
1542	-0.485
1543	-0.47
1544	-0.47
1545	-0.47
1546	-0.485
1547	-0.465
1548	-0.465
1549	-0.465
1550	-0.46
1551	-0.45
1552	-0.455
1553	-0.43
1554	-0.41
1555	-0.41
1556	-0.41
1557	-0.405
1558	-0.38
1559	-0.35
1560	-0.34
1561	-0.33
1562	-0.325
1563	-0.3
1564	-0.27
1565	-0.245
1566	-0.24
1567	-0.225
1568	-0.23
1569	-0.23
1570	-0.21
1571	-0.195
1572	-0.175
1573	-0.175
1574	-0.175
1575	-0.175
1576	-0.17
1577	-0.155
1578	-0.14
1579	-0.155
1580	-0.175
1581	-0.19
1582	-0.18
1583	-0.195
1584	-0.205
1585	-0.2
1586	-0.205
1587	-0.23
1588	-0.23
1589	-0.225
1590	-0.21
1591	-0.225
1592	-0.24
1593	-0.245
1594	-0.25
1595	-0.245
1596	-0.245
1597	-0.245
1598	-0.26
1599	-0.28
1600	-0.29
1601	-0.28
1602	-0.26
1603	-0.26
1604	-0.285
1605	-0.295
1606	-0.285
1607	-0.28
1608	-0.265
1609	-0.27
1610	-0.275
1611	-0.305
1612	-0.3
1613	-0.295
1614	-0.275
1615	-0.28
1616	-0.295
1617	-0.3
1618	-0.295
1619	-0.29
1620	-0.285
1621	-0.29
1622	-0.3
1623	-0.3
1624	-0.29
1625	-0.285
1626	-0.295
1627	-0.28
1628	-0.285
1629	-0.295
1630	-0.285
1631	-0.29
1632	-0.275
1633	-0.285
1634	-0.305
1635	-0.305
1636	-0.305
1637	-0.285
1638	-0.285
1639	-0.29
1640	-0.295
1641	-0.305
1642	-0.305
1643	-0.295
1644	-0.285
1645	-0.28
1646	-0.28
1647	-0.295
1648	-0.29
1649	-0.285
1650	-0.275
1651	-0.285
1652	-0.28
1653	-0.295
1654	-0.29
1655	-0.29
1656	-0.285
1657	-0.28
1658	-0.29
1659	-0.3
1660	-0.275
1661	-0.275
1662	-0.275
1663	-0.275
1664	-0.29
1665	-0.285
1666	-0.27
1667	-0.265
1668	-0.245
1669	-0.23
1670	-0.22
1671	-0.22
1672	-0.21
1673	-0.18
1674	-0.18
1675	-0.19
1676	-0.19
1677	-0.19
1678	-0.15
1679	-0.125
1680	-0.105
1681	-0.095
1682	-0.09
1683	-0.09
1684	-0.075
1685	-0.06
1686	-0.065
1687	-0.08
1688	-0.095
1689	-0.11
1690	-0.105
1691	-0.1
1692	-0.1
1693	-0.125
1694	-0.17
1695	-0.225
1696	-0.27
1697	-0.295
1698	-0.305
1699	-0.325
1700	-0.345
1701	-0.34
1702	-0.335
1703	-0.325
1704	-0.32
1705	-0.33
1706	-0.34
1707	-0.35
1708	-0.34
1709	-0.32
1710	-0.32
1711	-0.32
1712	-0.32
1713	-0.325
1714	-0.325
1715	-0.32
1716	-0.3
1717	-0.295
1718	-0.305
1719	-0.31
1720	-0.31
1721	-0.305
1722	-0.29
1723	-0.28
1724	-0.305
1725	-0.31
1726	-0.315
1727	-0.325
1728	-0.31
1729	-0.3
1730	-0.255
1731	-0.18
1732	-0.045
1733	0.135
1734	0.32
1735	0.495
1736	0.675
1737	0.855
1738	1.015
1739	1.135
1740	1.2
1741	1.205
1742	1.1
1743	0.95
1744	0.82
1745	0.745
1746	0.66
1747	0.52
1748	0.355
1749	0.24
1750	0.155
1751	0.14
1752	0.08
1753	-0.02
1754	-0.125
1755	-0.22
1756	-0.29
1757	-0.325
1758	-0.355
1759	-0.395
1760	-0.435
1761	-0.455
1762	-0.46
1763	-0.475
1764	-0.48
1765	-0.495
1766	-0.5
1767	-0.51
1768	-0.5
1769	-0.485
1770	-0.475
1771	-0.48
1772	-0.495
1773	-0.49
1774	-0.485
1775	-0.475
1776	-0.445
1777	-0.46
1778	-0.485
1779	-0.495
1780	-0.49
1781	-0.48
1782	-0.465
1783	-0.465
1784	-0.47
1785	-0.48
1786	-0.475
1787	-0.46
1788	-0.47
1789	-0.46
1790	-0.47
1791	-0.47
1792	-0.48
1793	-0.485
1794	-0.475
1795	-0.475
1796	-0.49
1797	-0.51
1798	-0.51
1799	-0.51
1800	-0.495
1801	-0.5
1802	-0.51
1803	-0.505
1804	-0.495
1805	-0.505
1806	-0.49
1807	-0.49
1808	-0.495
1809	-0.495
1810	-0.485
1811	-0.47
1812	-0.465
1813	-0.485
1814	-0.48
1815	-0.485
1816	-0.47
1817	-0.44
1818	-0.43
1819	-0.44
1820	-0.435
1821	-0.425
1822	-0.405
1823	-0.4
1824	-0.385
1825	-0.365
1826	-0.355
1827	-0.35
1828	-0.33
1829	-0.315
1830	-0.29
1831	-0.275
1832	-0.27
1833	-0.265
1834	-0.25
1835	-0.245
1836	-0.215
1837	-0.2
1838	-0.19
1839	-0.195
1840	-0.175
1841	-0.16
1842	-0.155
1843	-0.15
1844	-0.16
1845	-0.165
1846	-0.16
1847	-0.155
1848	-0.155
1849	-0.17
1850	-0.185
1851	-0.2
1852	-0.21
1853	-0.195
1854	-0.2
1855	-0.21
1856	-0.235
1857	-0.24
1858	-0.245
1859	-0.235
1860	-0.22
1861	-0.23
1862	-0.255
1863	-0.27
1864	-0.275
1865	-0.265
1866	-0.26
1867	-0.265
1868	-0.265
1869	-0.275
1870	-0.285
1871	-0.275
1872	-0.265
1873	-0.26
1874	-0.275
1875	-0.29
1876	-0.28
1877	-0.295
1878	-0.28
1879	-0.285
1880	-0.29
1881	-0.31
1882	-0.295
1883	-0.285
1884	-0.285
1885	-0.295
1886	-0.31
1887	-0.325
1888	-0.31
1889	-0.295
1890	-0.285
1891	-0.295
1892	-0.305
1893	-0.305
1894	-0.31
1895	-0.295
1896	-0.29
1897	-0.29
1898	-0.3
1899	-0.305
1900	-0.295
1901	-0.3
1902	-0.3
1903	-0.295
1904	-0.285
1905	-0.295
1906	-0.29
1907	-0.28
1908	-0.275
1909	-0.29
1910	-0.305
1911	-0.305
1912	-0.295
1913	-0.285
1914	-0.275
1915	-0.29
1916	-0.295
1917	-0.31
1918	-0.3
1919	-0.295
1920	-0.275
1921	-0.275
1922	-0.29
1923	-0.3
1924	-0.305
1925	-0.29
1926	-0.29
1927	-0.285
1928	-0.28
1929	-0.285
1930	-0.29
1931	-0.285
1932	-0.28
1933	-0.285
1934	-0.275
1935	-0.285
1936	-0.275
1937	-0.265
1938	-0.265
1939	-0.265
1940	-0.265
1941	-0.255
1942	-0.22
1943	-0.185
1944	-0.175
1945	-0.18
1946	-0.2
1947	-0.215
1948	-0.19
1949	-0.16
1950	-0.125
1951	-0.115
1952	-0.11
1953	-0.115
1954	-0.115
1955	-0.1
1956	-0.075
1957	-0.075
1958	-0.085
1959	-0.1
1960	-0.095
1961	-0.085
1962	-0.1
1963	-0.12
1964	-0.125
1965	-0.145
1966	-0.165
1967	-0.195
1968	-0.245
1969	-0.3
1970	-0.325
1971	-0.35
1972	-0.35
1973	-0.34
1974	-0.34
1975	-0.35
1976	-0.36
1977	-0.37
1978	-0.355
1979	-0.34
1980	-0.335
1981	-0.345
1982	-0.335
1983	-0.35
1984	-0.35
1985	-0.34
1986	-0.34
1987	-0.335
1988	-0.335
1989	-0.35
1990	-0.34
1991	-0.325
1992	-0.31
1993	-0.295
1994	-0.325
1995	-0.325
1996	-0.31
1997	-0.32
1998	-0.315
1999	-0.315
2000	-0.33
2001	-0.335
2002	-0.32
2003	-0.275
2004	-0.215
2005	-0.1
2006	0.01
2007	0.165
2008	0.34
2009	0.525
2010	0.705
2011	0.86
2012	0.98
2013	1.08
2014	1.18
2015	1.205
2016	1.155
2017	1.025
2018	0.88
2019	0.77
2020	0.685
2021	0.595
2022	0.48
2023	0.33
2024	0.22
2025	0.165
2026	0.09
2027	0.015
2028	-0.08
2029	-0.175
2030	-0.25
2031	-0.31
2032	-0.36
2033	-0.415
2034	-0.465
2035	-0.49
2036	-0.505
2037	-0.52
2038	-0.525
2039	-0.535
2040	-0.53
2041	-0.53
2042	-0.525
2043	-0.55
2044	-0.55
2045	-0.555
2046	-0.53
2047	-0.525
2048	-0.53
2049	-0.53
2050	-0.525
2051	-0.525
2052	-0.52
2053	-0.525
2054	-0.53
2055	-0.52
2056	-0.505
2057	-0.51
2058	-0.505
2059	-0.505
2060	-0.52
2061	-0.525
2062	-0.52
2063	-0.505
2064	-0.505
2065	-0.505
2066	-0.52
2067	-0.525
2068	-0.535
2069	-0.53
2070	-0.525
2071	-0.525
2072	-0.525
2073	-0.53
2074	-0.525
2075	-0.525
2076	-0.52
2077	-0.525
2078	-0.535
2079	-0.53
2080	-0.53
2081	-0.52
2082	-0.515
2083	-0.53
2084	-0.525
2085	-0.53
2086	-0.53
2087	-0.51
2088	-0.495
2089	-0.495
2090	-0.495
2091	-0.505
2092	-0.49
2093	-0.465
2094	-0.44
2095	-0.435
2096	-0.435
2097	-0.445
2098	-0.43
2099	-0.405
2100	-0.375
2101	-0.365
2102	-0.345
2103	-0.335
2104	-0.335
2105	-0.315
2106	-0.29
2107	-0.3
2108	-0.275
2109	-0.275
2110	-0.25
2111	-0.23
2112	-0.22
2113	-0.22
2114	-0.21
2115	-0.215
2116	-0.19
2117	-0.18
2118	-0.165
2119	-0.17
2120	-0.185
2121	-0.205
2122	-0.195
2123	-0.19
2124	-0.185
2125	-0.185
2126	-0.2
2127	-0.21
2128	-0.225
2129	-0.22
2130	-0.22
2131	-0.235
2132	-0.24
2133	-0.26
2134	-0.27
2135	-0.275
2136	-0.27
2137	-0.275
2138	-0.28
2139	-0.29
2140	-0.285
2141	-0.275
2142	-0.275
2143	-0.29
2144	-0.295
2145	-0.31
2146	-0.31
2147	-0.295
2148	-0.275
2149	-0.295
2150	-0.3
2151	-0.315
2152	-0.32
2153	-0.31
2154	-0.295
2155	-0.3
2156	-0.315
2157	-0.335
2158	-0.32
2159	-0.315
2160	-0.305
2161	-0.315
2162	-0.32
2163	-0.325
2164	-0.32
2165	-0.315
2166	-0.315
2167	-0.31
2168	-0.33
2169	-0.335
2170	-0.315
2171	-0.32
2172	-0.31
2173	-0.31
2174	-0.325
2175	-0.335
2176	-0.325
2177	-0.31
2178	-0.305
2179	-0.3
2180	-0.315
2181	-0.32
2182	-0.31
2183	-0.305
2184	-0.29
2185	-0.3
2186	-0.315
2187	-0.31
2188	-0.315
2189	-0.305
2190	-0.305
2191	-0.31
2192	-0.315
2193	-0.315
2194	-0.31
2195	-0.3
2196	-0.29
2197	-0.31
2198	-0.315
2199	-0.33
2200	-0.315
2201	-0.295
2202	-0.295
2203	-0.3
2204	-0.3
2205	-0.315
2206	-0.3
2207	-0.29
2208	-0.285
2209	-0.285
2210	-0.295
2211	-0.305
2212	-0.31
2213	-0.295
2214	-0.28
2215	-0.27
2216	-0.255
2217	-0.25
2218	-0.22
2219	-0.205
2220	-0.19
2221	-0.195
2222	-0.21
2223	-0.22
2224	-0.195
2225	-0.175
2226	-0.16
2227	-0.155
2228	-0.15
2229	-0.145
2230	-0.13
2231	-0.11
2232	-0.095
2233	-0.11
2234	-0.105
2235	-0.125
2236	-0.135
2237	-0.13
2238	-0.125
2239	-0.14
2240	-0.155
2241	-0.2
2242	-0.24
2243	-0.275
2244	-0.3
2245	-0.32
2246	-0.345
2247	-0.38
2248	-0.385
2249	-0.37
2250	-0.355
2251	-0.365
2252	-0.375
2253	-0.38
2254	-0.365
2255	-0.355
2256	-0.355
2257	-0.36
2258	-0.36
2259	-0.37
2260	-0.355
2261	-0.345
2262	-0.345
2263	-0.335
2264	-0.34
2265	-0.34
2266	-0.34
2267	-0.325
2268	-0.315
2269	-0.32
2270	-0.335
2271	-0.345
2272	-0.325
2273	-0.345
2274	-0.325
2275	-0.315
2276	-0.285
2277	-0.185
2278	-0.025
2279	0.165
2280	0.375
2281	0.595
2282	0.76
2283	0.945
2284	1.09
2285	1.2
2286	1.28
2287	1.255
2288	1.145
2289	0.995
2290	0.85
2291	0.73
2292	0.625
2293	0.47
2294	0.305
2295	0.175
2296	0.1
2297	0.035
2298	-0.06
2299	-0.145
2300	-0.235
2301	-0.29
2302	-0.335
2303	-0.385
2304	-0.435
2305	-0.46
2306	-0.49
2307	-0.495
2308	-0.51
2309	-0.525
2310	-0.535
2311	-0.54
2312	-0.535
2313	-0.555
2314	-0.56
2315	-0.53
2316	-0.52
2317	-0.52
2318	-0.525
2319	-0.54
2320	-0.53
2321	-0.525
2322	-0.52
2323	-0.52
2324	-0.515
2325	-0.525
2326	-0.515
2327	-0.5
2328	-0.5
2329	-0.505
2330	-0.51
2331	-0.53
2332	-0.53
2333	-0.51
2334	-0.51
2335	-0.505
2336	-0.505
2337	-0.51
2338	-0.53
2339	-0.51
2340	-0.5
2341	-0.505
2342	-0.515
2343	-0.525
2344	-0.52
2345	-0.5
2346	-0.495
2347	-0.495
2348	-0.515
2349	-0.52
2350	-0.525
2351	-0.51
2352	-0.51
2353	-0.51
2354	-0.5
2355	-0.5
2356	-0.49
2357	-0.48
2358	-0.485
2359	-0.47
2360	-0.46
2361	-0.465
2362	-0.45
2363	-0.435
2364	-0.42
2365	-0.415
2366	-0.41
2367	-0.41
2368	-0.4
2369	-0.36
2370	-0.34
2371	-0.33
2372	-0.31
2373	-0.31
2374	-0.3
2375	-0.275
2376	-0.255
2377	-0.235
2378	-0.23
2379	-0.235
2380	-0.21
2381	-0.19
2382	-0.175
2383	-0.16
2384	-0.16
2385	-0.16
2386	-0.165
2387	-0.17
2388	-0.18
2389	-0.175
2390	-0.185
2391	-0.205
2392	-0.205
2393	-0.2
2394	-0.21
2395	-0.22
2396	-0.225
2397	-0.25
2398	-0.25
2399	-0.25
2400	-0.26
2401	-0.26
2402	-0.27
2403	-0.295
2404	-0.285
2405	-0.26
2406	-0.26
2407	-0.27
2408	-0.275
2409	-0.305
2410	-0.3
2411	-0.295
2412	-0.295
2413	-0.29
2414	-0.285
2415	-0.3
2416	-0.305
2417	-0.3
2418	-0.295
2419	-0.3
2420	-0.31
2421	-0.315
2422	-0.315
2423	-0.305
2424	-0.3
2425	-0.305
2426	-0.3
2427	-0.32
2428	-0.32
2429	-0.315
2430	-0.32
2431	-0.325
2432	-0.32
2433	-0.33
2434	-0.33
2435	-0.32
2436	-0.305
2437	-0.31
2438	-0.315
2439	-0.32
2440	-0.315
2441	-0.305
2442	-0.3
2443	-0.305
2444	-0.305
2445	-0.33
2446	-0.32
2447	-0.305
2448	-0.3
2449	-0.305
2450	-0.295
2451	-0.3
2452	-0.325
2453	-0.305
2454	-0.29
2455	-0.295
2456	-0.3
2457	-0.315
2458	-0.32
2459	-0.31
2460	-0.305
2461	-0.3
2462	-0.31
2463	-0.32
2464	-0.31
2465	-0.305
2466	-0.295
2467	-0.295
2468	-0.31
2469	-0.315
2470	-0.32
2471	-0.31
2472	-0.31
2473	-0.305
2474	-0.31
2475	-0.305
2476	-0.305
2477	-0.29
2478	-0.26
2479	-0.25
2480	-0.24
2481	-0.25
2482	-0.235
2483	-0.22
2484	-0.21
2485	-0.225
2486	-0.22
2487	-0.225
2488	-0.18
2489	-0.16
2490	-0.145
2491	-0.125
2492	-0.135
2493	-0.125
2494	-0.11
2495	-0.105
2496	-0.11
2497	-0.115
2498	-0.135
2499	-0.155
2500	-0.155
2501	-0.17
2502	-0.175
2503	-0.195
2504	-0.235
2505	-0.28
2506	-0.325
2507	-0.33
2508	-0.345
2509	-0.36
2510	-0.375
2511	-0.38
2512	-0.375
2513	-0.38
2514	-0.38
2515	-0.38
2516	-0.39
2517	-0.375
2518	-0.355
2519	-0.355
2520	-0.35
2521	-0.345
2522	-0.345
2523	-0.35
2524	-0.345
2525	-0.34
2526	-0.33
2527	-0.325
2528	-0.335
2529	-0.34
2530	-0.34
2531	-0.32
2532	-0.31
2533	-0.325
2534	-0.32
2535	-0.335
2536	-0.34
2537	-0.32
2538	-0.315
2539	-0.275
2540	-0.195
2541	-0.05
2542	0.115
2543	0.315
2544	0.48
2545	0.67
2546	0.83
2547	0.955
2548	1.08
2549	1.165
2550	1.22
2551	1.2
2552	1.09
2553	0.93
2554	0.81
2555	0.72
2556	0.615
2557	0.44
2558	0.26
2559	0.125
2560	0.035
2561	-0.03
2562	-0.095
2563	-0.195
2564	-0.28
2565	-0.33
2566	-0.365
2567	-0.385
2568	-0.42
2569	-0.465
2570	-0.495
2571	-0.515
2572	-0.525
2573	-0.53
2574	-0.525
2575	-0.53
2576	-0.525
2577	-0.54
2578	-0.535
2579	-0.525
2580	-0.52
2581	-0.52
2582	-0.535
2583	-0.515
2584	-0.515
2585	-0.5
2586	-0.52
2587	-0.52
2588	-0.51
2589	-0.525
2590	-0.52
2591	-0.495
2592	-0.49
2593	-0.52
2594	-0.51
2595	-0.515
2596	-0.51
2597	-0.505
2598	-0.505
2599	-0.51
2600	-0.5
2601	-0.515
2602	-0.52
2603	-0.515
2604	-0.515
2605	-0.525
2606	-0.51
2607	-0.52
2608	-0.505
2609	-0.5
2610	-0.5
2611	-0.51
2612	-0.51
2613	-0.51
2614	-0.51
2615	-0.5
2616	-0.5
2617	-0.5
2618	-0.5
2619	-0.495
2620	-0.485
2621	-0.455
2622	-0.46
2623	-0.44
2624	-0.46
2625	-0.455
2626	-0.435
2627	-0.405
2628	-0.4
2629	-0.395
2630	-0.4
2631	-0.4
2632	-0.37
2633	-0.345
2634	-0.325
2635	-0.315
2636	-0.305
2637	-0.29
2638	-0.27
2639	-0.245
2640	-0.225
2641	-0.225
2642	-0.205
2643	-0.22
2644	-0.195
2645	-0.185
2646	-0.175
2647	-0.18
2648	-0.19
2649	-0.195
2650	-0.185
2651	-0.19
2652	-0.2
2653	-0.195
2654	-0.22
2655	-0.24
2656	-0.24
2657	-0.24
2658	-0.23
2659	-0.235
2660	-0.24
2661	-0.265
2662	-0.265
2663	-0.255
2664	-0.255
2665	-0.26
2666	-0.265
2667	-0.27
2668	-0.28
2669	-0.265
2670	-0.25
2671	-0.27
2672	-0.28
2673	-0.29
2674	-0.28
2675	-0.275
2676	-0.28
2677	-0.275
2678	-0.28
2679	-0.29
2680	-0.295
2681	-0.29
2682	-0.3
2683	-0.28
2684	-0.3
2685	-0.295
2686	-0.295
2687	-0.28
2688	-0.28
2689	-0.28
2690	-0.29
2691	-0.3
2692	-0.275
2693	-0.27
2694	-0.275
2695	-0.285
2696	-0.285
2697	-0.29
2698	-0.275
2699	-0.28
2700	-0.265
2701	-0.27
2702	-0.29
2703	-0.3
2704	-0.275
2705	-0.285
2706	-0.27
2707	-0.275
2708	-0.28
2709	-0.285
2710	-0.28
2711	-0.265
2712	-0.27
2713	-0.26
2714	-0.275
2715	-0.28
2716	-0.275
2717	-0.255
2718	-0.245
2719	-0.245
2720	-0.265
2721	-0.285
2722	-0.275
2723	-0.275
2724	-0.255
2725	-0.255
2726	-0.255
2727	-0.27
2728	-0.265
2729	-0.255
2730	-0.235
2731	-0.23
2732	-0.235
2733	-0.25
2734	-0.235
2735	-0.205
2736	-0.175
2737	-0.155
2738	-0.16
2739	-0.16
2740	-0.16
2741	-0.155
2742	-0.15
2743	-0.14
2744	-0.115
2745	-0.105
2746	-0.08
2747	-0.07
2748	-0.055
2749	-0.045
2750	-0.045
2751	-0.055
2752	-0.05
2753	-0.065
2754	-0.07
2755	-0.07
2756	-0.08
2757	-0.1
2758	-0.12
2759	-0.16
2760	-0.195
2761	-0.25
2762	-0.29
2763	-0.315
2764	-0.315
2765	-0.32
2766	-0.295
2767	-0.31
2768	-0.32
2769	-0.315
2770	-0.315
2771	-0.295
2772	-0.275
2773	-0.28
2774	-0.29
2775	-0.315
2776	-0.295
2777	-0.29
2778	-0.29
2779	-0.275
2780	-0.29
2781	-0.3
2782	-0.29
2783	-0.275
2784	-0.265
2785	-0.255
2786	-0.265
2787	-0.29
2788	-0.295
2789	-0.285
2790	-0.255
2791	-0.22
2792	-0.155
2793	-0.075
2794	0.06
2795	0.21
2796	0.38
2797	0.555
2798	0.745
2799	0.915
2800	1.065
2801	1.165
2802	1.25
2803	1.22
2804	1.095
2805	0.93
2806	0.795
2807	0.68
2808	0.57
2809	0.41
2810	0.275
2811	0.195
2812	0.13
2813	0.035
2814	-0.055
2815	-0.13
2816	-0.195
2817	-0.255
2818	-0.31
2819	-0.345
2820	-0.37
2821	-0.405
2822	-0.425
2823	-0.44
2824	-0.45
2825	-0.45
2826	-0.45
2827	-0.465
2828	-0.46
2829	-0.48
2830	-0.46
2831	-0.445
2832	-0.43
2833	-0.435
2834	-0.45
2835	-0.465
2836	-0.46
2837	-0.45
2838	-0.445
2839	-0.43
2840	-0.44
2841	-0.44
2842	-0.455
2843	-0.43
2844	-0.44
2845	-0.435
2846	-0.435
2847	-0.445
2848	-0.445
2849	-0.435
2850	-0.435
2851	-0.435
2852	-0.445
2853	-0.44
2854	-0.435
2855	-0.43
2856	-0.43
2857	-0.44
2858	-0.44
2859	-0.435
2860	-0.435
2861	-0.43
2862	-0.42
2863	-0.43
2864	-0.44
2865	-0.44
2866	-0.445
2867	-0.435
2868	-0.41
2869	-0.415
2870	-0.415
2871	-0.43
2872	-0.415
2873	-0.405
2874	-0.39
2875	-0.38
2876	-0.385
2877	-0.395
2878	-0.385
2879	-0.36
2880	-0.33
2881	-0.32
2882	-0.31
2883	-0.31
2884	-0.31
2885	-0.28
2886	-0.245
2887	-0.225
2888	-0.21
2889	-0.205
2890	-0.195
2891	-0.165
2892	-0.15
2893	-0.14
2894	-0.135
2895	-0.115
2896	-0.11
2897	-0.095
2898	-0.095
2899	-0.105
2900	-0.11
2901	-0.115
2902	-0.105
2903	-0.11
2904	-0.11
2905	-0.125
2906	-0.14
2907	-0.15
2908	-0.155
2909	-0.15
2910	-0.155
2911	-0.17
2912	-0.175
2913	-0.19
2914	-0.18
2915	-0.17
2916	-0.175
2917	-0.175
2918	-0.19
2919	-0.21
2920	-0.2
2921	-0.2
2922	-0.195
2923	-0.2
2924	-0.215
2925	-0.22
2926	-0.225
2927	-0.215
2928	-0.195
2929	-0.22
2930	-0.205
2931	-0.23
2932	-0.23
2933	-0.22
2934	-0.215
2935	-0.215
2936	-0.23
2937	-0.25
2938	-0.24
2939	-0.23
2940	-0.22
2941	-0.215
2942	-0.23
2943	-0.23
2944	-0.22
2945	-0.225
2946	-0.23
2947	-0.23
2948	-0.22
2949	-0.23
2950	-0.23
2951	-0.225
2952	-0.215
2953	-0.22
2954	-0.22
2955	-0.225
2956	-0.225
2957	-0.21
2958	-0.215
2959	-0.21
2960	-0.215
2961	-0.215
2962	-0.215
2963	-0.21
2964	-0.2
2965	-0.215
2966	-0.225
2967	-0.23
2968	-0.215
2969	-0.2
2970	-0.205
2971	-0.205
2972	-0.2
2973	-0.215
2974	-0.195
2975	-0.19
2976	-0.175
2977	-0.19
2978	-0.21
2979	-0.22
2980	-0.215
2981	-0.195
2982	-0.19
2983	-0.185
2984	-0.175
2985	-0.15
2986	-0.115
2987	-0.095
2988	-0.09
2989	-0.11
2990	-0.12
2991	-0.13
2992	-0.11
2993	-0.07
2994	-0.05
2995	-0.04
2996	-0.035
2997	-0.05
2998	-0.04
2999	-0.005
3000	0.01
3001	0
3002	-0.02
3003	-0.045
3004	-0.045
3005	-0.04
3006	-0.055
3007	-0.09
3008	-0.16
3009	-0.22
3010	-0.27
3011	-0.26
3012	-0.265
3013	-0.265
3014	-0.275
3015	-0.29
3016	-0.28
3017	-0.285
3018	-0.27
3019	-0.255
3020	-0.265
3021	-0.265
3022	-0.26
3023	-0.26
3024	-0.26
3025	-0.26
3026	-0.265
3027	-0.265
3028	-0.245
3029	-0.235
3030	-0.23
3031	-0.22
3032	-0.225
3033	-0.245
3034	-0.225
3035	-0.215
3036	-0.205
3037	-0.205
3038	-0.23
3039	-0.245
3040	-0.225
3041	-0.19
3042	-0.105
3043	0.025
3044	0.2
3045	0.39
3046	0.615
3047	0.83
3048	1.005
3049	1.13
3050	1.21
3051	1.27
3052	1.32
3053	1.275
3054	1.145
3055	0.97
3056	0.84
3057	0.715
3058	0.55
3059	0.41
3060	0.31
3061	0.235
3062	0.155
3063	0.04
3064	-0.06
3065	-0.14
3066	-0.185
3067	-0.24
3068	-0.29
3069	-0.35
3070	-0.37
3071	-0.37
3072	-0.385
3073	-0.405
3074	-0.43
3075	-0.435
3076	-0.43
3077	-0.43
3078	-0.43
3079	-0.42
3080	-0.435
3081	-0.435
3082	-0.43
3083	-0.42
3084	-0.395
3085	-0.405
3086	-0.405
3087	-0.42
3088	-0.415
3089	-0.39
3090	-0.38
3091	-0.395
3092	-0.41
3093	-0.42
3094	-0.415
3095	-0.405
3096	-0.385
3097	-0.39
3098	-0.415
3099	-0.42
3100	-0.415
3101	-0.395
3102	-0.39
3103	-0.39
3104	-0.4
3105	-0.44
3106	-0.445
3107	-0.42
3108	-0.405
3109	-0.415
3110	-0.41
3111	-0.425
3112	-0.425
3113	-0.42
3114	-0.405
3115	-0.42
3116	-0.43
3117	-0.43
3118	-0.43
3119	-0.42
3120	-0.405
3121	-0.4
3122	-0.41
3123	-0.405
3124	-0.39
3125	-0.38
3126	-0.365
3127	-0.345
3128	-0.335
3129	-0.33
3130	-0.315
3131	-0.305
3132	-0.28
3133	-0.275
3134	-0.27
3135	-0.27
3136	-0.25
3137	-0.225
3138	-0.205
3139	-0.195
3140	-0.18
3141	-0.185
3142	-0.16
3143	-0.135
3144	-0.11
3145	-0.1
3146	-0.1
3147	-0.105
3148	-0.11
3149	-0.1
3150	-0.08
3151	-0.095
3152	-0.095
3153	-0.125
3154	-0.115
3155	-0.11
3156	-0.115
3157	-0.115
3158	-0.125
3159	-0.155
3160	-0.15
3161	-0.135
3162	-0.145
3163	-0.145
3164	-0.15
3165	-0.165
3166	-0.175
3167	-0.17
3168	-0.18
3169	-0.185
3170	-0.2
3171	-0.2
3172	-0.195
3173	-0.19
3174	-0.2
3175	-0.19
3176	-0.2
3177	-0.205
3178	-0.205
3179	-0.205
3180	-0.195
3181	-0.2
3182	-0.215
3183	-0.225
3184	-0.225
3185	-0.22
3186	-0.225
3187	-0.235
3188	-0.235
3189	-0.23
3190	-0.215
3191	-0.215
3192	-0.21
3193	-0.21
3194	-0.215
3195	-0.225
3196	-0.21
3197	-0.205
3198	-0.2
3199	-0.215
3200	-0.225
3201	-0.235
3202	-0.23
3203	-0.215
3204	-0.195
3205	-0.195
3206	-0.205
3207	-0.23
3208	-0.225
3209	-0.215
3210	-0.205
3211	-0.21
3212	-0.225
3213	-0.23
3214	-0.215
3215	-0.22
3216	-0.225
3217	-0.23
3218	-0.225
3219	-0.22
3220	-0.22
3221	-0.205
3222	-0.205
3223	-0.21
3224	-0.215
3225	-0.225
3226	-0.22
3227	-0.22
3228	-0.22
3229	-0.215
3230	-0.22
3231	-0.23
3232	-0.215
3233	-0.2
3234	-0.205
3235	-0.205
3236	-0.215
3237	-0.205
3238	-0.18
3239	-0.145
3240	-0.12
3241	-0.12
3242	-0.135
3243	-0.145
3244	-0.125
3245	-0.095
3246	-0.065
3247	-0.045
3248	-0.05
3249	-0.05
3250	-0.035
3251	-0.02
3252	0
3253	-0.01
3254	-0.035
3255	-0.05
3256	-0.065
3257	-0.05
3258	-0.06
3259	-0.09
3260	-0.13
3261	-0.19
3262	-0.235
3263	-0.26
3264	-0.28
3265	-0.285
3266	-0.3
3267	-0.3
3268	-0.295
3269	-0.295
3270	-0.27
3271	-0.265
3272	-0.27
3273	-0.29
3274	-0.29
3275	-0.285
3276	-0.275
3277	-0.27
3278	-0.27
3279	-0.285
3280	-0.275
3281	-0.255
3282	-0.25
3283	-0.245
3284	-0.255
3285	-0.27
3286	-0.26
3287	-0.255
3288	-0.255
3289	-0.25
3290	-0.27
3291	-0.28
3292	-0.24
3293	-0.17
3294	-0.03
3295	0.13
3296	0.305
3297	0.5
3298	0.725
3299	0.94
3300	1.1
3301	1.215
3302	1.26
3303	1.2
3304	1.065
3305	0.93
3306	0.8
3307	0.66
3308	0.495
3309	0.34
3310	0.235
3311	0.195
3312	0.17
3313	0.085
3314	-0.025
3315	-0.13
3316	-0.195
3317	-0.25
3318	-0.305
3319	-0.355
3320	-0.395
3321	-0.42
3322	-0.42
3323	-0.425
3324	-0.44
3325	-0.44
3326	-0.46
3327	-0.455
3328	-0.46
3329	-0.45
3330	-0.435
3331	-0.44
3332	-0.45
3333	-0.45
3334	-0.44
3335	-0.425
3336	-0.41
3337	-0.42
3338	-0.435
3339	-0.44
3340	-0.43
3341	-0.425
3342	-0.415
3343	-0.425
3344	-0.425
3345	-0.425
3346	-0.42
3347	-0.41
3348	-0.405
3349	-0.415
3350	-0.42
3351	-0.425
3352	-0.435
3353	-0.43
3354	-0.425
3355	-0.41
3356	-0.425
3357	-0.425
3358	-0.425
3359	-0.425
3360	-0.43
3361	-0.44
3362	-0.44
3363	-0.43
3364	-0.425
3365	-0.42
3366	-0.405
3367	-0.41
3368	-0.425
3369	-0.41
3370	-0.415
3371	-0.405
3372	-0.41
3373	-0.395
3374	-0.4
3375	-0.405
3376	-0.385
3377	-0.365
3378	-0.345
3379	-0.33
3380	-0.325
3381	-0.32
3382	-0.31
3383	-0.29
3384	-0.28
3385	-0.265
3386	-0.26
3387	-0.27
3388	-0.245
3389	-0.22
3390	-0.19
3391	-0.17
3392	-0.16
3393	-0.17
3394	-0.155
3395	-0.14
3396	-0.125
3397	-0.13
3398	-0.125
3399	-0.125
3400	-0.11
3401	-0.105
3402	-0.11
3403	-0.11
3404	-0.12
3405	-0.125
3406	-0.14
3407	-0.135
3408	-0.13
3409	-0.15
3410	-0.155
3411	-0.18
3412	-0.185
3413	-0.18
3414	-0.165
3415	-0.175
3416	-0.2
3417	-0.2
3418	-0.2
3419	-0.21
3420	-0.19
3421	-0.21
3422	-0.21
3423	-0.21
3424	-0.22
3425	-0.21
3426	-0.21
3427	-0.225
3428	-0.22
3429	-0.235
3430	-0.225
3431	-0.215
3432	-0.22
3433	-0.235
3434	-0.245
3435	-0.26
3436	-0.25
3437	-0.245
3438	-0.255
3439	-0.255
3440	-0.255
3441	-0.255
3442	-0.25
3443	-0.25
3444	-0.24
3445	-0.245
3446	-0.245
3447	-0.245
3448	-0.25
3449	-0.245
3450	-0.235
3451	-0.235
3452	-0.245
3453	-0.245
3454	-0.245
3455	-0.245
3456	-0.24
3457	-0.265
3458	-0.25
3459	-0.265
3460	-0.245
3461	-0.23
3462	-0.23
3463	-0.24
3464	-0.25
3465	-0.265
3466	-0.255
3467	-0.245
3468	-0.23
3469	-0.235
3470	-0.235
3471	-0.25
3472	-0.245
3473	-0.235
3474	-0.24
3475	-0.24
3476	-0.255
3477	-0.27
3478	-0.25
3479	-0.245
3480	-0.25
3481	-0.24
3482	-0.26
3483	-0.26
3484	-0.265
3485	-0.245
3486	-0.24
3487	-0.245
3488	-0.24
3489	-0.24
3490	-0.24
3491	-0.22
3492	-0.21
3493	-0.19
3494	-0.17
3495	-0.18
3496	-0.165
3497	-0.15
3498	-0.15
3499	-0.175
3500	-0.175
3501	-0.165
3502	-0.125
3503	-0.095
3504	-0.07
3505	-0.065
3506	-0.075
3507	-0.07
3508	-0.06
3509	-0.03
3510	-0.025
3511	-0.035
3512	-0.055
3513	-0.075
3514	-0.065
3515	-0.07
3516	-0.095
3517	-0.115
3518	-0.16
3519	-0.22
3520	-0.255
3521	-0.28
3522	-0.28
3523	-0.29
3524	-0.31
3525	-0.32
3526	-0.31
3527	-0.295
3528	-0.295
3529	-0.295
3530	-0.305
3531	-0.305
3532	-0.295
3533	-0.28
3534	-0.275
3535	-0.28
3536	-0.29
3537	-0.305
3538	-0.285
3539	-0.275
3540	-0.275
3541	-0.265
3542	-0.255
3543	-0.265
3544	-0.265
3545	-0.26
3546	-0.245
3547	-0.245
3548	-0.26
3549	-0.27
3550	-0.265
3551	-0.23
3552	-0.17
3553	-0.07
3554	0.07
3555	0.23
3556	0.41
3557	0.58
3558	0.75
3559	0.88
3560	1.005
3561	1.105
3562	1.19
3563	1.245
3564	1.2
3565	1.065
3566	0.905
3567	0.76
3568	0.66
3569	0.53
3570	0.375
3571	0.235
3572	0.135
3573	0.075
3574	0
3575	-0.085
3576	-0.155
3577	-0.22
3578	-0.26
3579	-0.3
3580	-0.33
3581	-0.355
3582	-0.39
3583	-0.41
3584	-0.445
3585	-0.45
3586	-0.45
3587	-0.445
3588	-0.46
3589	-0.455
3590	-0.465
3591	-0.47
3592	-0.445
3593	-0.435
3594	-0.435
3595	-0.43
3596	-0.445
3597	-0.435
3598	-0.435
3599	-0.415
